time (s)	magX	magY	magZ
22338.113692	-165.374054	245.692566	-909.973633
22338.116630	-168.296310	255.569839	-897.057251
22338.120409	-171.393921	265.680878	-885.134460
22338.123739	-174.257736	275.207489	-871.516663
22338.127060	-177.822906	284.558746	-858.249512
22338.130425	-181.563416	293.383972	-843.404419
22338.133703	-184.135010	302.326141	-830.371094
22338.137087	-187.174179	310.099365	-818.039185
22338.140421	-190.154877	318.632385	-804.538269
22338.143750	-191.908234	325.470490	-790.219116
22338.147069	-194.012283	332.717712	-777.127380
22338.150409	-196.876099	339.497375	-763.451172
22338.153708	-199.330811	344.874329	-750.885437
22338.157086	-201.142593	350.426666	-737.092346
22338.160422	-202.545288	355.803650	-723.649902
22338.163737	-204.357101	360.946838	-709.798340
22338.167072	-206.285782	365.271759	-697.291016
22338.170388	-207.337799	370.005859	-683.907043
22338.173805	-208.740494	374.330811	-671.575073
22338.177110	-210.084747	378.129761	-658.892395
22338.180423	-211.136765	381.344269	-646.151306
22338.183799	-212.305664	384.032745	-633.059570
22338.187096	-213.182358	386.078308	-620.727600
22338.190435	-213.416122	388.766785	-609.330750
22338.193813	-214.701935	391.396851	-596.355896
22338.197114	-214.409698	392.916412	-585.075989
22338.200450	-214.585037	394.436005	-572.276428
22338.203757	-214.468140	395.604889	-560.879578
22338.207056	-214.175919	397.007599	-549.482727
22338.210833	-213.883682	398.585632	-538.085876
22338.214141	-213.766815	399.170074	-526.396851
22338.217493	-212.773224	399.929871	-515.116882
22338.220785	-212.480988	400.222107	-503.544708
22338.224051	-212.247223	400.631226	-492.323212
22338.227390	-211.195206	401.040314	-481.744598
22338.230815	-210.493866	401.391022	-470.523071
22338.234113	-209.149628	400.864990	-460.178253
22338.237423	-208.389832	399.929871	-448.606079
22338.240753	-207.396271	399.462311	-438.378143
22338.244049	-206.110443	398.410278	-427.741089
22338.247406	-204.883102	397.942719	-417.571594
22338.250677	-203.597305	396.481598	-407.811218
22338.254020	-202.019287	395.604889	-398.050873
22338.257296	-201.434830	393.325562	-387.939789
22338.261039	-199.739899	392.039764	-378.354767
22338.264365	-199.097015	390.286377	-369.295746
22338.267649	-196.876099	389.000580	-359.769135
22338.270987	-195.940964	386.487457	-351.236115
22338.274295	-194.129150	384.558746	-343.404449
22338.277619	-192.492691	382.337830	-333.819397
22338.280949	-190.973114	379.707764	-325.987732
22338.284244	-190.154877	377.369965	-317.337830
22338.287555	-188.693741	375.265930	-310.149048
22338.290843	-187.291046	372.109863	-302.960266
22338.294275	-186.180588	370.356506	-294.777893
22338.297599	-185.245468	366.908234	-287.764465
22338.300905	-183.492111	364.336639	-280.751007
22338.304249	-182.498550	361.472839	-273.912903
22338.307556	-180.745163	358.375214	-267.542358
22338.310915	-179.284042	355.803650	-260.470490
22338.314254	-178.524246	353.056702	-255.093506
22338.317952	-176.770889	350.134430	-248.196960
22338.321240	-176.069550	347.738190	-243.112213
22338.324557	-174.549973	344.582123	-236.800110
22338.327851	-172.796600	342.127411	-231.364685
22338.331190	-171.744598	339.380493	-225.578613
22338.334521	-170.458786	335.815308	-220.376984
22338.337865	-169.173004	333.419067	-214.941559
22338.341156	-167.244293	330.263000	-209.447693
22338.344464	-166.016953	326.931641	-204.304504
22338.347739	-164.146698	324.944489	-199.453522
22338.351104	-162.860901	322.665100	-194.602570
22338.354826	-161.282867	318.866150	-189.693176
22338.358121	-159.295731	316.119232	-185.601990
22338.361469	-157.776154	313.839874	-180.809479
22338.364780	-156.022797	311.385162	-175.257172
22338.368129	-154.737000	307.586212	-172.451782
22338.371412	-152.749863	305.014618	-167.016357
22338.374768	-151.464050	302.326141	-162.516083
22338.378043	-149.886032	299.871429	-158.775574
22338.381422	-148.424896	297.124481	-154.158386
22338.384738	-146.437744	294.319122	-150.885437
22338.388057	-145.327286	291.922852	-146.852722
22338.391433	-143.690826	288.942139	-142.644653
22338.394706	-141.879013	285.727661	-138.261246
22338.398094	-140.651657	283.389832	-134.520752
22338.401398	-139.424316	280.642883	-131.306244
22338.404732	-138.021622	277.603760	-127.741089
22338.408029	-136.209824	275.382812	-124.351250
22338.411383	-134.924011	272.869659	-121.545876
22338.414735	-133.930435	270.239624	-118.331383
22338.418477	-132.235535	267.901794	-115.818237
22338.421801	-130.832855	265.680878	-113.071297
22338.425118	-129.780823	262.407959	-109.213905
22338.428457	-128.670364	260.537689	-106.759201
22338.431788	-127.559906	257.732330	-104.304497
22338.435094	-126.274109	255.628281	-102.258911
22338.438447	-124.929871	253.115143	-99.453537
22338.441738	-123.877838	251.478683	-96.881943
22338.445063	-123.468735	249.725296	-94.836349
22338.448341	-123.176498	247.153717	-92.673874
22338.451687	-121.540024	245.283463	-91.154297
22338.455053	-120.780243	243.705444	-88.699593
22338.458343	-119.845108	240.783173	-86.887787
22338.461638	-118.734650	239.088257	-84.842194
22338.465381	-117.741089	237.042679	-82.212158
22338.469021	-117.273514	235.406189	-80.341904
22338.472351	-116.396835	233.652832	-79.991234
22338.475710	-114.994156	231.490356	-77.887199
22338.479024	-113.942139	229.269440	-76.192284
22338.482354	-113.766800	227.574524	-73.971359
22338.485691	-112.773224	225.938034	-71.925774
22338.489022	-111.662766	223.424896	-70.406189
22338.492357	-110.318527	221.963776	-68.594391
22338.495684	-110.143188	220.561081	-68.126831
22338.499017	-109.266510	219.099930	-65.555229
22338.502352	-108.272949	216.762115	-64.970779
22338.505695	-107.279373	215.593231	-62.632961
22338.509018	-106.402679	214.015198	-61.347164
22338.512354	-105.409119	212.144958	-59.126244
22338.515688	-104.064865	210.917603	-57.840443
22338.519046	-103.947983	209.573349	-56.554646
22338.522348	-103.012856	207.060196	-55.561073
22338.525690	-101.785500	206.008194	-53.573933
22338.529013	-100.908829	204.956161	-52.814140
22338.532346	-100.265930	203.436600	-50.710114
22338.535682	-98.629463	201.975464	-50.651665
22338.539013	-98.161896	200.981888	-49.541203
22338.542345	-97.869667	198.936310	-48.138515
22338.545681	-96.583862	197.825836	-46.268265
22338.549023	-95.531853	196.949158	-44.690239
22338.552345	-94.947395	194.962021	-44.514904
22338.555680	-94.304497	194.202225	-43.696667
22338.559015	-93.720039	193.150208	-42.878433
22338.562375	-93.544708	192.156647	-42.352425
22338.565677	-93.194038	190.227951	-41.358852
22338.569037	-92.668030	189.409698	-40.482174
22338.572352	-91.966682	188.299240	-39.137932
22338.575676	-91.966682	186.955002	-39.430157
22338.579011	-91.265343	186.019882	-37.559906
22338.582348	-90.680885	185.786102	-36.507889
22338.585675	-90.154884	184.266510	-36.800117
22338.589009	-89.921104	183.623611	-35.455872
22338.592348	-89.511978	182.045593	-35.105202
22338.595679	-89.278198	181.402695	-34.345409
22338.599009	-89.161308	180.701340	-32.942722
22338.602345	-88.459969	179.766220	-33.059612
22338.605703	-87.992401	178.714203	-32.299824
22338.609006	-87.817055	177.603745	-31.832260
22338.612339	-87.291061	177.837524	-31.072472
22338.615673	-87.174164	176.902390	-30.429573
22338.619009	-86.531265	175.908829	-31.189362
22338.622344	-86.355934	175.324371	-29.786674
22338.625674	-86.005257	174.623032	-29.436001
22338.629060	-85.829926	174.389252	-29.143776
22338.632768	-84.953247	172.928116	-28.968439
22338.636100	-84.836349	172.460556	-28.500875
22338.639429	-84.602570	171.759201	-27.624195
22338.642761	-83.608994	171.759201	-27.507305
22338.646094	-83.959671	171.350098	-26.805962
22338.649465	-83.667442	170.531845	-26.104616
22338.652763	-82.849213	170.414963	-25.403271
22338.656115	-82.440086	169.421387	-25.403271
22338.659458	-82.381653	168.720047	-24.760372
22338.662780	-82.323204	168.310928	-24.526592
22338.666091	-81.738747	167.668045	-23.649910
22338.669436	-81.212746	166.966690	-23.766802
22338.672766	-80.569839	166.616013	-23.240795
22338.676085	-80.452950	166.791351	-22.130333
22338.679443	-80.219170	166.499130	-21.838106
22338.682756	-80.336052	166.031570	-21.838106
22338.686094	-80.219170	165.505554	-21.896551
22338.689449	-79.167145	165.271774	-21.312098
22338.692812	-79.284042	164.745773	-20.610752
22338.696108	-79.342491	164.453537	-20.961426
22338.699429	-79.400932	163.985977	-20.902981
22338.702760	-79.225594	163.985977	-21.078316
22338.706085	-78.933365	163.576859	-21.136761
22338.709447	-78.348915	163.459961	-21.545879
22338.712754	-78.407364	163.985977	-21.662769
22338.716536	-78.641144	163.459961	-21.253651
22338.719917	-77.998245	163.693741	-20.786089
22338.722820	-78.582695	163.167740	-20.902981
22338.726615	-78.115135	162.817062	-20.786089
22338.729851	-78.582695	162.758621	-21.370543
22338.733174	-78.641144	162.349503	-21.838106
22338.736512	-78.991814	162.758621	-21.487434
22338.739867	-79.225594	162.817062	-20.727644
22338.743194	-78.991814	163.167740	-21.019871
22338.746592	-79.225594	163.343079	-21.662769
22338.749910	-78.933365	163.109299	-21.312098
22338.753212	-79.284042	163.050842	-21.545879
22338.756511	-79.167145	163.226181	-21.428988
22338.759843	-78.582695	163.167740	-21.195206
22338.763196	-78.816475	163.810638	-20.493862
22338.766552	-79.050255	163.401520	-22.188778
22338.769935	-79.284042	163.752197	-21.721214
22338.773238	-79.342491	164.102875	-21.428988
22338.776510	-78.933365	163.752197	-21.545879
22338.779843	-79.167145	164.102875	-22.364113
22338.783168	-79.693161	164.979553	-22.071888
22338.786527	-79.459381	164.628876	-21.779659
22338.789894	-79.517822	164.921097	-22.247223
22338.793263	-79.576271	164.921097	-21.896551
22338.796607	-79.342491	165.505554	-22.948566
22338.799846	-79.108704	165.622437	-22.130333
22338.803611	-79.284042	165.564011	-22.773232
22338.806952	-79.342491	166.499130	-22.831676
22338.809906	-79.693161	166.791351	-22.948566
22338.813665	-79.926941	166.674469	-22.831676
22338.817005	-79.751602	167.200470	-23.766802
22338.820294	-79.868492	167.142029	-23.533020
22338.823621	-80.336052	168.310928	-23.649910
22338.826943	-80.452950	168.603165	-24.292810
22338.830367	-80.569839	168.836945	-24.000584
22338.833676	-81.329628	169.421387	-24.351257
22338.837005	-81.504959	170.005859	-24.994156
22338.840301	-81.154297	170.882523	-24.935709
22338.843610	-81.388077	171.525421	-25.753944
22338.847000	-82.206306	171.817657	-26.396843
22338.850325	-82.323204	171.992981	-27.098186
22338.853695	-82.732315	172.869659	-27.215078
22338.857037	-82.907654	173.161896	-28.325541
22338.860328	-83.667442	174.330795	-28.559322
22338.863629	-84.135002	175.149048	-28.734657
22338.867003	-84.544121	175.616608	-29.494446
22338.870342	-84.485680	176.434830	-29.669783
22338.873699	-85.070129	177.136185	-31.423143
22338.877014	-86.063705	178.655762	-31.832260
22338.880307	-85.713028	178.947998	-32.124489
22338.883707	-86.239037	179.649338	-32.825832
22338.887002	-86.765045	181.110458	-32.884277
22338.890336	-87.291061	181.461136	-34.345409
22338.893665	-87.758621	182.279373	-35.280537
22338.897421	-88.050842	183.565170	-37.618351
22338.900744	-88.985962	184.383408	-37.618351
22338.904011	-88.518402	185.435425	-37.267677
22338.907293	-89.102859	187.013443	-38.904148
22338.910588	-89.044411	187.831680	-39.547047
22338.913858	-90.213318	188.766815	-39.956165
22338.917166	-90.447098	189.585037	-41.183517
22338.920916	-91.148445	191.396851	-41.709526
22338.924199	-90.797775	192.098190	-42.819988
22338.927472	-91.090012	193.325546	-43.229103
22338.930750	-92.083572	194.786682	-43.988895
22338.934046	-92.784912	196.189362	-44.748684
22338.937343	-92.200470	197.241379	-45.040909
22338.940730	-93.018692	198.351837	-46.502045
22338.943993	-93.603157	199.579193	-47.028053
22338.947319	-93.603157	201.040329	-47.846287
22338.950620	-94.479836	202.092346	-49.015194
22338.954386	-95.005844	203.611923	-51.177673
22338.957717	-95.356506	205.073059	-51.411453
22338.961057	-96.174751	206.417297	-52.521915
22338.964443	-97.051430	207.469315	-53.749268
22338.967753	-97.343658	209.398010	-54.859734
22338.971076	-98.220337	210.391602	-56.028637
22338.974366	-99.155457	212.554062	-58.249561
22338.977713	-99.856804	214.190536	-58.424896
22338.981074	-101.610168	215.651657	-60.295151
22338.984390	-102.545296	217.521912	-61.639389
22338.987699	-102.486847	219.392166	-63.217415
22338.991015	-102.837524	220.561081	-64.444763
22338.994315	-103.772652	222.606659	-66.373466
22338.997747	-104.941559	224.418488	-69.061951
22339.001066	-105.876678	225.587372	-70.113968
22339.004388	-106.578026	228.100525	-72.159554
22339.007730	-107.746933	230.263000	-73.503799
22339.011076	-108.506729	231.782593	-75.257156
22339.014353	-109.792511	233.711273	-76.893631
22339.017712	-110.201630	235.464645	-78.763885
22339.021011	-111.545883	237.451797	-81.277031
22339.024387	-112.890121	239.497375	-83.497955
22339.027687	-113.416138	241.659866	-85.835770
22339.030998	-113.825241	243.997681	-87.180008
22339.034324	-115.111038	245.926361	-90.043831
22339.038107	-116.104614	248.147278	-92.498535
22339.041422	-116.513733	250.134430	-94.368790
22339.044733	-117.098190	252.121582	-96.940384
22339.048149	-118.442429	254.634720	-98.518410
22339.051445	-118.851547	256.271210	-100.914673
22339.054793	-120.604904	258.550537	-103.953827
22339.058133	-121.014023	261.239014	-106.525421
22339.061461	-121.598480	263.226166	-108.512566
22339.064768	-122.767380	266.148437	-111.201050
22339.068036	-123.468735	268.018707	-113.947983
22339.071373	-124.462311	270.298096	-116.285797
22339.074728	-125.280533	272.752777	-120.260078
22339.078023	-126.098770	275.382812	-122.305672
22339.081409	-127.443008	277.954407	-124.818817
22339.084704	-128.144363	281.110474	-127.974869
22339.088025	-128.553467	283.740509	-130.721802
22339.091333	-129.839279	286.078308	-134.111633
22339.095116	-130.891281	288.942139	-138.144363
22339.098026	-131.709518	291.572174	-141.709518
22339.101771	-133.170654	293.208649	-144.456451
22339.105055	-134.105789	296.656921	-148.956757
22339.108390	-134.982468	299.403870	-152.638809
22339.111685	-136.209824	302.209229	-156.905319
22339.115026	-137.670959	304.956177	-161.522491
22339.118336	-138.956741	307.177094	-164.620117
22339.121717	-140.242554	310.508484	-169.354187
22339.125015	-141.645233	313.372314	-174.205139
22339.128338	-142.872574	316.703674	-178.997650
22339.131616	-144.684402	319.567535	-183.556396
22339.134965	-145.736404	322.197540	-188.524261
22339.138317	-146.788422	324.769135	-193.725891
22339.141609	-147.957336	327.866760	-198.518402
22339.144909	-149.360016	331.315033	-203.661591
22339.148663	-150.821152	333.477509	-209.447693
22339.152287	-152.457626	337.218018	-214.590881
22339.155620	-153.801865	340.257172	-219.792511
22339.158974	-154.970779	342.302765	-226.221497
22339.162283	-156.315018	345.692566	-231.598480
22339.165623	-157.951477	348.322601	-237.559906
22339.168950	-158.711273	351.537109	-243.287537
22339.172290	-159.997086	354.576294	-249.716553
22339.175621	-161.516647	357.381653	-255.677979
22339.178956	-162.393341	359.894806	-262.691406
22339.182280	-163.854462	363.459961	-269.120392
22339.185622	-165.257156	366.090027	-275.257172
22339.188949	-165.607834	369.655182	-282.036835
22339.192281	-166.776733	371.934540	-288.699585
22339.195620	-167.244293	375.207489	-295.771484
22339.198952	-168.237869	377.428406	-303.018707
22339.202319	-169.523666	380.642883	-309.739929
22339.205612	-169.932785	383.389832	-317.396271
22339.208949	-170.867920	386.312103	-324.760376
22339.212278	-171.335480	388.240784	-332.825836
22339.215617	-171.861481	390.227936	-341.183533
22339.218944	-173.088837	392.974884	-348.547638
22339.222282	-173.731735	395.195801	-357.431335
22339.225613	-174.199295	397.533600	-366.431915
22339.228946	-175.017532	399.696106	-374.614258
22339.232285	-174.959091	402.443024	-383.439514
22339.235606	-175.543549	404.079498	-392.966125
22339.238947	-176.829330	405.949738	-402.492706
22339.242280	-177.121567	407.820007	-411.960846
22339.245612	-177.647583	409.456451	-421.721222
22339.248983	-178.232025	410.566925	-431.715393
22339.252296	-178.991821	412.028046	-441.300415
22339.255606	-179.342484	412.437195	-452.697235
22339.258946	-179.108704	413.255402	-462.808289
22339.262279	-180.043839	414.482758	-473.737579
22339.265616	-179.926941	414.716553	-484.374634
22339.268940	-180.277603	414.424316	-494.777924
22339.272273	-180.219177	414.716553	-507.402100
22339.275612	-180.219177	414.541229	-518.857361
22339.278943	-180.686737	414.482758	-531.013977
22339.282272	-180.452942	413.781433	-543.521301
22339.285612	-180.511398	412.846313	-555.327271
22339.288966	-180.336060	412.437195	-567.425476
22339.292696	-179.926941	410.566925	-579.172974
22339.296067	-179.342484	408.872009	-591.446533
22339.299392	-178.641144	407.586212	-604.479797
22339.302722	-177.238449	405.306854	-616.285767
22339.306030	-176.829330	403.319702	-628.559265
22339.309374	-176.127991	400.280518	-641.300354
22339.312696	-174.374634	397.884277	-653.983032
22339.316030	-172.913498	395.721802	-666.256531
22339.319368	-172.445938	391.922852	-680.108093
22339.322693	-170.341904	388.591461	-691.797180
22339.326037	-168.296310	385.026306	-704.772034
22339.329389	-166.075394	380.467560	-717.279358
22339.332762	-163.796036	375.733490	-729.961975
22339.336056	-161.224426	371.350067	-743.755066
22339.339434	-158.886612	365.680878	-755.210388
22339.342694	-156.548798	361.180603	-768.126770
22339.346020	-153.451202	355.336060	-780.224976
22339.349358	-150.470474	349.257751	-793.141418
22339.352701	-146.963760	343.004089	-805.356506
22339.356021	-143.690826	336.925781	-818.156006
22339.359351	-140.067200	329.327881	-831.656921
22339.362693	-136.618927	321.846863	-844.573303
22339.366045	-132.878433	314.891876	-857.022217
22339.369378	-129.956161	306.709534	-869.587952
22339.372718	-125.748093	298.351837	-882.212097
22339.376480	-121.773819	289.000580	-893.959656
22339.379777	-117.974869	279.357117	-906.291626
22339.383123	-113.825241	270.239624	-918.272888
22339.386494	-109.617187	260.187042	-930.312683
22339.389800	-104.883110	250.426651	-941.475708
22339.393223	-100.791931	240.081818	-952.872620
22339.396534	-95.298073	228.568085	-964.620056
22339.399862	-91.265343	217.112808	-975.666260
22339.403112	-86.414368	205.832840	-985.543579
22339.406450	-81.680305	193.968445	-995.128540
22339.409779	-76.887787	181.870255	-1006.116333
22339.413152	-71.627701	169.246063	-1015.000000
22339.416468	-67.068962	156.504974	-1023.942139
22339.419911	-62.276443	143.588547	-1032.416748
22339.423188	-56.957916	130.730576	-1040.949829
22339.426483	-51.054932	117.521927	-1049.424316
22339.429772	-45.794853	104.313263	-1057.139038
22339.433108	-41.002335	90.929276	-1064.561768
22339.436445	-34.982468	77.603745	-1070.698486
22339.439809	-29.839273	64.278198	-1076.952026
22339.443158	-23.760958	51.303333	-1081.394043
22339.446538	-18.150202	38.211571	-1087.121582
22339.449867	-12.188780	24.593803	-1091.446533
22339.453523	-5.935125	11.151374	-1095.128662
22339.456468	0.376974	-2.349504	-1097.700195
22339.460275	6.046172	-14.798363	-1101.616089
22339.463175	12.533607	-28.182350	-1102.784912
22339.466517	18.085915	-40.338985	-1103.778564
22339.470286	24.924021	-53.313847	-1105.882568
22339.473580	30.827003	-65.645828	-1105.765747
22339.476918	36.905319	-77.977798	-1105.707275
22339.480223	43.100525	-89.959091	-1105.064331
22339.483613	48.243717	-101.765045	-1102.668091
22339.486970	54.964935	-113.921692	-1101.499146
22339.490305	60.400352	-126.253647	-1099.336670
22339.493614	66.829338	-137.708939	-1095.946899
22339.497003	72.089424	-149.631790	-1093.024658
22339.500348	77.524841	-160.210403	-1088.875000
22339.503678	82.843361	-171.899460	-1083.322632
22339.507024	88.629456	-183.062531	-1079.991211
22339.510306	93.246643	-194.225586	-1073.737671
22339.513608	98.682060	-204.453537	-1067.016357
22339.516931	103.065460	-215.382812	-1061.054932
22339.520238	108.267097	-225.552307	-1053.457031
22339.523618	112.299828	-235.020447	-1046.443604
22339.526956	116.858566	-244.780823	-1038.202881
