time (s)	magX	magY	magZ
24029.354604	270.978943	-134.260666	-238.962616
24029.357940	272.615417	-135.078903	-243.872009
24029.361244	274.076538	-135.897125	-249.132080
24029.364625	276.180603	-137.416718	-254.976624
24029.367955	277.992401	-138.001160	-260.645813
24029.371266	279.628876	-138.644073	-266.548798
24029.374568	281.206909	-140.046753	-271.458221
24029.377907	282.375824	-140.981888	-276.659851
24029.381312	284.246063	-141.800110	-282.971954
24029.384606	285.999420	-142.559906	-289.634705
24029.387943	287.460541	-143.553482	-295.771484
24029.391286	289.097015	-143.962585	-301.615997
24029.394593	290.791931	-144.722382	-308.220337
24029.397948	291.902405	-145.423721	-314.649323
24029.401283	293.305084	-146.592636	-321.312103
24029.404609	294.532440	-147.177078	-328.267120
24029.407985	296.110474	-147.819992	-335.338989
24029.411297	296.636475	-148.345993	-343.462921
24029.414624	298.214478	-148.988892	-350.184113
24029.417909	299.266510	-148.579773	-357.898895
24029.421311	300.610748	-149.456451	-365.379883
24029.424680	301.487427	-150.040909	-372.510223
24029.427988	302.831665	-149.339569	-380.926361
24029.431293	303.591461	-149.514893	-389.284058
24029.434641	303.708374	-149.982452	-397.933960
24029.438412	305.052582	-149.631790	-406.174774
24029.441360	305.987732	-149.514893	-414.006439
24029.445085	306.221497	-149.807129	-423.474579
24029.448413	306.396851	-149.690247	-431.072479
24029.451742	306.981293	-149.105774	-440.599060
24029.455039	307.098206	-149.514893	-450.125641
24029.458351	306.864410	-148.871994	-458.950897
24029.461660	306.572174	-148.930450	-468.360626
24029.464979	306.572174	-148.345993	-477.653412
24029.468271	306.513733	-147.586212	-486.537140
24029.471573	305.812378	-147.060196	-496.005249
24029.474905	305.169495	-147.060196	-506.057831
24029.478206	303.182343	-146.358856	-517.279358
24029.481572	302.422577	-145.949738	-526.163025
24029.485297	300.727661	-144.839264	-535.163635
24029.488701	299.441833	-144.605484	-544.514893
24029.491983	297.980713	-143.787262	-554.742859
24029.495338	296.461121	-142.969025	-564.210937
24029.498630	293.714203	-142.033890	-573.679077
24029.501959	291.902405	-140.689651	-584.666870
24029.505315	289.097015	-139.696075	-594.485657
24029.508649	286.817657	-138.410294	-603.252441
24029.511949	283.544708	-137.884277	-613.363464
24029.515308	281.148468	-136.247803	-622.481018
24029.518608	276.706604	-134.845123	-632.358215
24029.521979	274.193451	-133.676208	-641.767944
24029.525269	270.452942	-131.864395	-650.768555
24029.528556	267.004669	-130.111038	-660.411987
24029.531950	263.147278	-127.948563	-669.178772
24029.535266	259.172974	-125.727631	-677.653381
24029.538685	254.614258	-123.565170	-686.244873
24029.542019	250.639984	-121.285797	-695.011658
24029.545291	245.905899	-118.480408	-704.070679
24029.548662	240.938049	-116.084152	-712.194641
24029.551998	236.028656	-113.103439	-719.967834
24029.555305	230.534775	-109.362946	-728.617737
24029.558647	225.157806	-105.856232	-736.449402
24029.561942	219.196381	-102.875519	-744.456421
24029.565341	213.234955	-99.193451	-752.755676
24029.568647	207.390411	-95.511398	-758.658691
24029.571983	200.493866	-92.004684	-765.204529
24029.575764	193.772659	-87.913498	-772.159546
24029.579058	187.109879	-83.471649	-779.172974
24029.582449	179.862656	-79.438919	-786.420166
24029.585761	172.732315	-75.230850	-791.446533
24029.589092	164.783752	-70.730560	-797.524841
24029.592383	158.004089	-66.347168	-803.135559
24029.595727	149.821747	-61.729984	-807.869629
24029.599103	141.405609	-57.580364	-812.779053
24029.602412	133.106369	-52.554062	-817.571594
24029.605711	124.573349	-47.761543	-821.078308
24029.609054	116.040329	-42.793690	-823.883667
24029.612331	107.390419	-37.825832	-827.799500
24029.615752	98.214500	-33.617767	-830.429504
24029.619034	88.687904	-28.591465	-832.825806
24029.622295	80.154877	-23.857395	-834.462280
24029.625604	70.394508	-18.421974	-836.449463
24029.629355	60.809464	-13.863237	-838.319702
24029.632693	51.750435	-8.661602	-838.436523
24029.635978	41.697838	-3.459965	-839.488525
24029.639356	32.697254	1.215664	-839.488525
24029.642658	23.287552	6.241964	-840.014587
24029.646041	13.234951	11.502046	-838.611938
24029.649314	3.474577	16.469902	-837.793640
24029.652608	-5.759790	21.905319	-835.280518
24029.655955	-15.169493	26.171829	-834.286926
24029.659236	-24.579195	30.730568	-832.533569
24029.662605	-33.813560	35.639977	-829.552856
24029.665894	-42.931030	40.783165	-826.630615
24029.669223	-52.223839	45.809467	-823.240784
24029.672534	-61.165977	50.426651	-819.850952
24029.675911	-69.582115	54.985390	-815.467529
24029.679262	-79.284042	60.303917	-811.960815
24029.682564	-87.057281	65.271774	-806.350037
24029.685885	-95.590294	70.882523	-801.323792
24029.689639	-104.123314	75.499710	-796.881897
24029.693215	-112.364105	80.233780	-790.686707
24029.696553	-120.195786	84.850967	-784.900574
24029.699882	-127.676788	89.059021	-778.296326
24029.703217	-135.917587	93.676208	-771.925781
24029.706548	-143.457047	99.053177	-764.678528
24029.709882	-150.762711	103.787262	-757.840393
24029.713217	-157.951477	108.872009	-751.469849
24029.716549	-165.666275	112.495621	-744.924011
24029.719874	-172.212158	117.112793	-735.923401
24029.723213	-178.991821	120.911743	-727.215088
24029.726546	-185.303925	125.704269	-718.682007
24029.729900	-192.317368	129.152542	-710.207458
24029.733238	-198.395676	134.003510	-701.382202
24029.736547	-204.298660	137.276443	-692.615417
24029.739876	-210.435410	140.315613	-684.140869
24029.743209	-215.753937	144.289886	-674.672668
24029.746557	-220.312683	147.679733	-665.379883
24029.749874	-226.157211	150.192871	-655.677979
24029.753215	-231.475739	152.822922	-647.729370
24029.756544	-236.443604	155.511398	-638.845642
24029.759875	-241.060791	158.609009	-627.857971
24029.763210	-245.210419	161.063721	-618.623596
24029.766541	-249.418457	162.933960	-609.564575
24029.769881	-253.684967	165.213333	-599.044373
24029.773208	-257.483948	166.966690	-590.335999
24029.776556	-261.282867	168.544724	-580.341919
24029.779871	-264.555817	170.064285	-570.639954
24029.783206	-267.828735	171.583878	-560.996460
24029.786538	-270.634125	173.220337	-551.703674
24029.789874	-273.322632	174.739929	-542.703125
24029.793200	-275.952637	175.499710	-533.410278
24029.796577	-277.881348	176.493286	-524.701904
24029.799877	-279.926941	177.311523	-516.636475
24029.803208	-281.914093	177.720642	-506.174774
24029.806537	-284.018097	178.947998	-496.881927
24029.809870	-285.187012	179.473984	-487.705994
24029.813207	-286.706604	180.467560	-479.523682
24029.816543	-287.641724	180.818237	-470.464661
24029.819897	-289.161285	181.694916	-461.113373
24029.823639	-290.622437	182.045593	-452.872620
24029.826956	-290.447113	182.980728	-444.281097
24029.830291	-290.914673	182.980728	-435.864990
24029.833626	-291.615997	183.272934	-426.689087
24029.837005	-291.206909	183.623611	-418.331390
24029.840313	-291.849792	183.857407	-410.382843
24029.843651	-292.025146	183.798950	-401.674469
24029.846956	-291.557556	184.032730	-394.076569
24029.850294	-291.089996	183.798950	-385.309784
24029.853635	-291.265350	183.915848	-377.068970
24029.856969	-290.622437	183.974289	-369.412628
24029.860289	-289.687317	183.272934	-361.522522
24029.863631	-289.219757	183.857407	-353.457062
24029.866951	-288.927521	182.688492	-346.618958
24029.870307	-287.174164	182.396271	-338.728821
24029.873643	-287.291046	181.519592	-331.072479
24029.876979	-286.180603	180.759796	-323.649902
24029.880333	-284.661011	180.233780	-317.220947
24029.883623	-283.609009	179.941559	-309.798370
24029.886955	-282.556976	179.006424	-302.726501
24029.890283	-281.037415	178.129745	-296.239044
24029.893628	-280.219177	177.311523	-289.284027
24029.896953	-278.758026	176.201050	-283.497955
24029.900328	-277.355347	175.149048	-276.893616
24029.903639	-275.777313	174.330795	-270.873749
24029.906982	-274.608429	172.986557	-265.555237
24029.910786	-273.205719	172.109879	-259.067810
24029.914079	-271.861481	170.824081	-253.164825
24029.917371	-269.640564	170.239639	-247.554077
24029.920716	-268.997681	168.778503	-241.183533
24029.924100	-267.478088	167.551147	-234.988312
24029.927395	-265.724731	166.499130	-231.130920
24029.930824	-264.088257	165.037994	-225.812378
24029.934169	-262.393341	164.161301	-221.428986
24029.937447	-260.289307	162.817062	-216.636475
24029.940709	-259.061951	161.297501	-211.142609
24029.944070	-256.957916	160.303925	-207.051422
24029.947366	-255.146118	158.901230	-202.200470
24029.950732	-253.275879	158.316772	-197.466400
24029.954082	-251.931610	156.738754	-193.725891
24029.957464	-249.652252	156.037415	-188.991821
24029.960821	-247.957336	154.810059	-185.134430
24029.964039	-245.970184	153.991821	-181.861481
24029.967385	-243.983063	153.056702	-177.127411
24029.970705	-242.346558	151.186447	-173.562256
24029.974061	-240.417877	150.777328	-169.646423
24029.977385	-238.547638	149.374634	-166.081238
24029.980779	-236.443604	148.731735	-161.639404
24029.984113	-234.514908	147.621277	-157.898895
24029.987483	-232.644653	145.809464	-154.275269
24029.991147	-230.949738	144.874344	-150.242554
24029.994483	-228.845718	144.289886	-147.144928
24029.997881	-226.975464	143.237869	-144.105774
24030.001190	-225.280548	141.952087	-140.306824
24030.004155	-223.410294	141.075409	-137.852142
24030.007883	-221.656921	139.263596	-134.754532
24030.011200	-219.611328	138.854477	-131.072479
24030.014536	-218.150208	137.451782	-128.091766
24030.017937	-216.864410	136.575104	-125.987732
24030.021294	-214.877274	135.815308	-122.305672
24030.024631	-212.831680	134.295731	-119.617187
24030.027940	-211.487427	133.126816	-117.571594
24030.031342	-209.500290	132.600830	-114.298653
24030.034658	-208.214493	130.964355	-111.493279
24030.038029	-206.636475	129.737000	-109.272354
24030.041305	-205.058456	127.983627	-106.466972
24030.044607	-203.421967	126.814728	-104.246056
24030.047926	-201.902390	126.347168	-102.083580
24030.051211	-200.207474	125.353592	-100.213326
24030.054560	-198.804779	124.243134	-97.758621
24030.057840	-197.226761	123.307999	-95.303909
24030.061204	-194.830505	122.022217	-93.433662
24030.064603	-194.187622	121.203979	-91.329636
24030.067886	-192.960266	120.327301	-89.985390
24030.071202	-191.206909	119.275269	-88.290474
24030.074535	-189.804214	117.989487	-85.718880
24030.077829	-188.284637	117.463470	-83.731735
24030.081220	-186.648148	116.703674	-82.971939
24030.084542	-185.596130	115.885452	-80.751022
24030.087857	-184.544128	115.417892	-79.172997
24030.091644	-183.141449	114.541199	-78.296318
24030.095005	-181.738754	113.781418	-76.542953
24030.097935	-180.745163	113.313858	-75.081825
24030.101667	-179.342484	112.261841	-73.912918
24030.104971	-178.582703	111.209824	-72.042664
24030.108283	-177.121567	111.151382	-70.756866
24030.111581	-175.894211	109.514908	-69.646408
24030.114926	-174.374634	108.872009	-68.419052
24030.118220	-173.556396	108.579773	-67.367035
24030.121607	-172.212158	107.761536	-66.081238
24030.124905	-171.277039	107.644653	-64.503212
24030.128229	-170.400345	107.118652	-63.334305
24030.131592	-169.582108	106.417297	-61.639389
24030.134969	-167.653412	105.365280	-61.230274
24030.138307	-166.309174	105.306839	-59.769142
24030.141636	-165.958496	104.488602	-59.009350
24030.144952	-164.672699	104.196381	-57.723553
24030.148280	-164.029816	103.144363	-56.671535
24030.151620	-162.860901	102.326126	-55.327293
24030.154922	-161.925781	101.858566	-55.327293
24030.158259	-160.815308	101.624786	-54.275276
24030.161973	-159.997086	100.748108	-52.054352
24030.165270	-158.594391	100.222092	-51.820572
24030.168586	-157.542374	99.929871	-50.417885
24030.172025	-156.431915	99.345413	-49.365868
24030.175312	-155.905899	99.170074	-48.547630
24030.178630	-154.912323	98.351837	-48.021622
24030.181968	-154.269424	97.299820	-47.670952
24030.185262	-153.568085	96.481583	-46.443600
24030.188629	-152.691406	96.306259	-45.742256
24030.191944	-151.639389	95.721802	-44.690239
24030.195301	-151.054947	95.546463	-44.047340
24030.198658	-150.295151	95.078903	-43.988895
24030.201931	-149.652252	94.611343	-42.878433
24030.205285	-148.483337	93.909988	-42.819988
24030.208615	-148.249557	93.325546	-41.943306
24030.211916	-147.840439	93.150208	-42.235535
24030.215282	-146.963760	92.448868	-40.715954
24030.218583	-146.437744	92.916428	-41.125072
24030.221893	-146.203964	92.448868	-40.306839
24030.225638	-145.794861	92.098190	-39.722385
24030.228975	-144.859726	91.689072	-38.436584
24030.232333	-145.035065	91.221512	-38.553478
24030.235635	-144.158386	91.455292	-37.793686
24030.238982	-144.158386	91.046173	-38.436584
24030.242260	-142.814148	91.104614	-37.676796
24030.245605	-142.931030	90.578613	-37.384571
24030.248869	-142.229691	90.695496	-36.274109
24030.252235	-142.346588	89.994156	-35.631210
24030.255502	-141.586792	89.994156	-36.215664
24030.258778	-141.353012	89.175919	-35.923435
24030.262052	-140.710114	89.292816	-34.871418
24030.265772	-139.950317	89.351257	-34.812973
24030.269078	-139.891876	89.292816	-34.170074
24030.272344	-139.950317	88.299240	-34.345409
24030.275657	-139.248978	88.591461	-34.696083
24030.278929	-139.248978	88.182358	-33.702511
24030.282214	-138.722961	88.533020	-33.001167
24030.285532	-138.664520	88.533020	-32.650497
24030.289314	-137.787842	88.182358	-32.358269
24030.292606	-137.670959	88.357681	-31.773815
24030.295925	-137.495605	88.123901	-31.540035
24030.299244	-137.670959	87.831680	-30.663353
24030.302563	-136.794266	87.364120	-31.072472
24030.305863	-136.735825	87.422562	-31.189362
24030.309200	-136.151367	87.714783	-30.721800
24030.312479	-136.385147	87.188782	-30.254236
24030.315770	-136.268265	86.545883	-29.728228
24030.319092	-135.333145	86.721222	-30.137346
24030.322437	-135.742249	86.662766	-29.962009
24030.325727	-135.333145	86.604324	-30.078901
24030.329051	-135.917587	86.545883	-29.085329
24030.332761	-135.099365	86.195206	-29.436001
24030.336503	-135.450027	86.078323	-29.845119
24030.339816	-135.450027	86.136765	-29.202221
24030.343161	-134.924011	86.078323	-29.377556
24030.346485	-135.333145	86.312103	-29.436001
24030.349813	-135.800705	86.545883	-29.143776
24030.353151	-135.274689	86.019867	-29.436001
24030.356482	-135.450027	86.312103	-29.669783
24030.359813	-135.391571	86.370544	-29.903564
24030.363153	-135.450027	86.370544	-29.202221
24030.366485	-135.800705	86.253647	-29.260666
24030.369811	-136.034485	86.604324	-29.319111
24030.373163	-135.859146	86.662766	-29.611338
24030.376484	-136.502045	86.428986	-29.319111
24030.379816	-136.209824	86.312103	-29.845119
24030.383151	-136.268265	86.545883	-29.903564
24030.386477	-136.911163	86.896561	-30.721800
24030.389814	-137.320282	87.071884	-30.955582
24030.393143	-137.495605	87.539444	-31.247807
24030.396552	-137.086502	87.948563	-31.540035
24030.399816	-137.612503	88.299240	-32.416714
24030.403150	-138.080063	88.416138	-32.475159
24030.406480	-137.554062	88.065460	-32.416714
24030.409814	-138.547638	88.708359	-32.241379
24030.413144	-138.196960	88.766800	-32.592052
24030.416502	-138.722961	89.059021	-33.351841
24030.419809	-138.956741	89.234360	-33.585621
24030.423147	-139.307419	89.175919	-34.053185
24030.426482	-139.599640	89.526596	-33.819405
24030.429813	-140.184097	90.227936	-34.053185
24030.433140	-140.534775	90.286377	-35.163647
24030.436477	-140.651657	90.695496	-35.046757
24030.439810	-141.060776	90.461716	-35.631210
24030.443141	-140.768555	90.870834	-36.566334
24030.446475	-141.528336	90.929276	-36.449444
24030.449810	-141.820572	91.689072	-36.274109
24030.453140	-142.171234	91.455292	-36.741673
24030.456527	-142.931030	91.689072	-37.969025
24030.459822	-143.164810	92.507309	-38.904148
24030.463137	-143.924606	92.565750	-38.670368
24030.466476	-144.333710	92.682648	-39.196377
24030.469802	-144.684402	92.916428	-39.137932
24030.473144	-145.444183	93.325546	-40.131500
24030.476469	-146.203964	93.676208	-40.423729
24030.479802	-146.613098	94.611343	-41.125072
24030.483140	-146.963760	94.786682	-42.001751
24030.486472	-148.249557	94.845123	-42.118645
24030.489799	-148.892456	95.312683	-41.884861
24030.493139	-149.360016	96.072479	-43.053768
24030.496896	-149.652252	96.189362	-43.638222
24030.500226	-150.996490	96.364700	-44.748684
24030.503591	-151.288727	97.475159	-44.690239
24030.506924	-152.106949	97.475159	-45.800701
24030.510249	-152.925186	97.825836	-46.560490
24030.513560	-154.152542	98.293396	-47.203388
24030.516893	-154.561661	98.644073	-47.904732
24030.520216	-155.379883	99.696091	-49.190529
24030.523558	-156.548798	100.222092	-50.125656
24030.526901	-156.665695	100.806549	-51.879017
24030.530223	-157.367035	101.391006	-52.171242
24030.533562	-158.945053	102.443024	-53.340149
24030.536917	-159.763290	103.319702	-54.450615
24030.540273	-160.523071	103.319702	-55.677963
24030.543581	-161.691986	104.021042	-56.379311
24030.546933	-162.744003	104.897720	-57.255989
24030.550221	-163.153122	105.365280	-57.957336
24030.553557	-164.146698	105.657516	-58.541786
24030.556892	-165.315598	106.651077	-60.762711
24030.560223	-166.426056	107.527756	-61.580948
24030.563571	-166.835190	108.638229	-63.042080
24030.566882	-168.296310	109.047333	-63.684978
24030.570217	-169.231430	110.216248	-64.678551
24030.573568	-170.225006	110.040909	-66.081238
24030.576905	-171.335480	110.859146	-67.308594
24030.580251	-172.504379	111.502045	-68.711281
24030.583987	-173.264160	112.320282	-69.178841
24030.587308	-174.257736	113.196960	-71.516655
24030.590644	-175.718872	113.606079	-73.211571
24030.594004	-177.121567	114.307419	-73.854469
24030.597340	-177.998245	115.476318	-75.432495
24030.600754	-179.284042	115.651672	-76.133835
24030.604079	-180.277603	116.703674	-77.711868
24030.607411	-181.446533	117.463470	-79.406784
24030.610640	-183.082977	118.983047	-80.517242
24030.614011	-184.076569	119.099945	-81.627701
24030.617303	-185.128571	120.151962	-84.491524
24030.620658	-186.063690	121.788437	-86.069550
24030.624011	-188.518402	122.314438	-87.764465
24030.627396	-189.862656	122.489777	-89.926941
24030.630737	-191.148437	123.892471	-91.972534
24030.633966	-192.609589	124.944473	-93.784332
24030.637317	-193.661591	125.762711	-96.355927
24030.640636	-195.590302	127.106949	-98.167740
24030.643991	-197.051422	128.042084	-100.856224
24030.647329	-198.687912	128.860321	-102.901810
24030.650730	-199.272339	130.379898	-105.648743
24030.654045	-201.610153	131.957916	-108.044998
24030.657344	-203.538864	132.191696	-110.733490
24030.660631	-205.000000	133.711288	-113.012856
24030.663969	-206.402679	134.237289	-115.350670
24030.667328	-207.980698	136.282883	-117.980713
24030.671123	-209.675613	136.925766	-121.721214
24030.674074	-211.370544	138.036240	-124.877266
24030.677413	-213.357681	139.380493	-127.682640
24030.681125	-214.292816	140.490936	-130.429565
24030.684443	-216.104630	142.244308	-133.527176
24030.687799	-217.857971	143.413223	-136.683228
24030.691152	-219.319107	143.822327	-139.547058
24030.694478	-220.078888	145.400345	-142.703094
24030.697805	-221.598480	146.803040	-145.450043
24030.701103	-223.702499	148.673294	-149.365875
24030.704478	-225.455872	149.900650	-152.521912
24030.707775	-226.566330	151.128006	-156.379303
24030.711144	-228.378143	151.770889	-158.950897
24030.714481	-230.599060	153.056702	-162.340729
24030.717826	-231.534195	154.693176	-165.555237
24030.721191	-233.521332	154.985382	-170.055511
24030.724488	-235.216263	156.095856	-173.386902
24030.727835	-236.618958	157.323212	-177.244293
24030.731176	-238.489197	159.018112	-180.867920
24030.734504	-240.242554	160.537704	-185.718872
24030.737831	-241.586792	161.589706	-189.342499
24030.741174	-243.340149	162.407959	-193.901245
24030.744510	-245.677979	164.219757	-198.050842
24030.747918	-247.548218	165.622437	-203.194031
24030.751271	-248.191101	166.148453	-207.460541
24030.754591	-250.470490	167.492691	-212.019287
24030.757952	-252.048523	168.369385	-217.220917
24030.761244	-253.100525	170.239639	-222.071899
24030.764565	-255.029236	170.590302	-226.689056
24030.767868	-257.250153	172.285217	-232.241394
