time (s)	magX	magY	magZ
22252.964689	146.198135	-252.670959	-144.690247
22252.968027	147.425491	-254.541199	-148.080063
22252.971362	148.945053	-256.469879	-152.229691
22252.974686	150.523087	-258.690826	-155.502625
22252.977997	152.276443	-260.677948	-158.541779
22252.981323	153.796036	-262.489777	-162.632965
22252.984695	154.555817	-264.535339	-166.198120
22252.987997	156.133850	-266.639404	-170.464630
22252.991331	157.302750	-268.801880	-173.854462
22252.994664	159.056107	-270.438324	-177.127411
22252.997994	160.867920	-272.717712	-181.803040
22253.001380	161.452362	-274.587952	-186.186432
22253.004683	163.731735	-276.516632	-191.271179
22253.008067	165.075989	-278.912933	-195.537689
22253.011324	166.361771	-281.192261	-199.979553
22253.014697	167.764465	-283.588531	-205.181183
22253.018000	168.991821	-285.634125	-209.564575
22253.021329	170.102280	-288.322601	-215.116882
22253.024659	172.147873	-291.595551	-219.675629
22253.027998	174.076553	-293.056702	-225.695496
22253.031324	175.479263	-295.569855	-231.598480
22253.034686	176.297485	-297.732330	-236.566345
22253.038018	178.167740	-300.362366	-242.527740
22253.041827	179.511978	-302.524841	-247.729401
22253.045120	181.031570	-305.447083	-253.457062
22253.048417	182.083572	-308.018707	-260.528931
22253.051757	183.895386	-310.005859	-266.724121
22253.055102	185.473404	-312.811218	-273.211578
22253.058444	186.525436	-315.207489	-279.991211
22253.061847	187.986557	-317.253052	-286.595551
22253.065229	189.973709	-320.000000	-293.024536
22253.068453	190.791931	-322.337799	-299.979553
22253.071780	192.895981	-324.208069	-307.635895
22253.075088	194.181763	-327.071869	-315.584442
22253.078404	196.344254	-328.591461	-323.299255
22253.081771	197.220917	-330.812378	-331.189392
22253.085117	199.558731	-333.383972	-339.547058
22253.088515	200.727646	-335.488037	-347.554077
22253.091833	202.481018	-338.176514	-355.561066
22253.095091	204.351257	-339.812958	-364.737000
22253.098407	205.695496	-341.332550	-373.036255
22253.101743	207.741089	-343.611938	-382.796600
22253.105096	209.085342	-345.306854	-392.089417
22253.108470	210.838684	-347.469330	-401.966705
22253.111838	212.708939	-349.222687	-411.610199
22253.115170	213.702515	-351.268250	-420.844543
22253.118412	216.098770	-352.787842	-431.364716
22253.122176	217.326126	-354.015198	-440.949738
22253.125518	218.144363	-355.067200	-451.995911
22253.128448	219.547043	-356.703674	-461.990082
22253.131779	221.943314	-357.814148	-472.627136
22253.135150	222.293976	-359.684387	-483.673309
22253.138490	223.871994	-360.444183	-494.894806
22253.142161	225.391586	-361.203979	-506.174774
22253.145552	226.852722	-362.898895	-518.272888
22253.148940	227.261826	-363.541779	-529.260681
22253.152296	228.606079	-364.418488	-541.767944
22253.155612	228.956757	-364.476898	-553.866150
22253.158947	229.833435	-366.054932	-566.081238
22253.162285	230.067215	-365.704254	-578.705444
22253.165571	229.833435	-366.113373	-591.680237
22253.168919	230.593231	-366.580933	-603.836914
22253.172249	230.826996	-366.697815	-616.168884
22253.175632	230.885468	-366.113373	-630.371094
22253.178915	231.119232	-365.061371	-643.755066
22253.182257	230.768570	-365.470490	-657.197510
22253.185579	230.476334	-364.944489	-670.464661
22253.188953	230.125671	-363.950928	-683.907043
22253.192280	229.658112	-362.665100	-697.349487
22253.195593	229.132080	-360.853302	-710.967224
22253.198908	228.489182	-359.509064	-726.163025
22253.202227	227.904724	-357.171234	-738.845642
22253.205535	227.203400	-355.417877	-752.521851
22253.208969	226.034485	-353.430756	-766.139648
22253.212303	224.631790	-350.742249	-779.172974
22253.215603	223.696671	-347.293976	-792.966064
22253.218925	222.293976	-343.962585	-806.466919
22253.222735	220.657516	-340.222076	-819.675598
22253.226034	218.787262	-336.481598	-832.825806
22253.229351	216.741669	-331.747498	-846.911194
22253.232661	216.098770	-327.247223	-859.710632
22253.235966	213.585632	-323.156036	-873.503784
22253.239286	211.481598	-318.305084	-886.595581
22253.242732	209.552902	-312.343658	-898.576843
22253.246013	207.098190	-306.849792	-910.791931
22253.249352	204.468140	-300.654602	-922.539429
22253.252745	201.545883	-294.342499	-934.403809
22253.256046	198.623611	-287.562805	-946.911194
22253.259374	195.526001	-281.250732	-957.022217
22253.262667	192.486847	-273.652832	-968.711243
22253.266020	188.921677	-267.048492	-979.173035
22253.269385	185.765640	-258.573944	-989.400879
22253.272726	181.148453	-250.800690	-998.752136
22253.276034	177.875504	-242.559906	-1008.220337
22253.279413	172.966095	-234.436005	-1017.220886
22253.282713	168.874939	-226.370544	-1027.098267
22253.286062	163.790176	-217.194626	-1035.689697
22253.289344	158.822327	-207.960236	-1043.170654
22253.292661	153.737579	-198.082993	-1050.885498
22253.296013	148.594391	-189.199295	-1057.606689
22253.299360	142.516083	-178.620697	-1064.795532
22253.302656	136.729980	-168.684982	-1070.347778
22253.305992	130.710114	-157.463470	-1075.081787
22253.309726	124.573349	-146.767975	-1081.043335
22253.313061	118.027466	-136.423141	-1084.783813
22253.316393	111.656929	-124.909409	-1089.517822
22253.319757	105.286385	-113.687912	-1091.505005
22253.323108	97.863823	-101.648163	-1093.842773
22253.326408	91.902397	-89.549973	-1096.355957
22253.329713	84.713623	-77.744003	-1097.291138
22253.332995	77.115723	-65.295151	-1098.518433
22253.336348	70.219170	-53.196957	-1098.167847
22253.339643	63.497955	-40.806545	-1097.758667
22253.343052	56.484512	-27.539452	-1096.823486
22253.346351	49.178841	-14.623026	-1096.414307
22253.349660	42.749855	-1.998831	-1093.433716
22253.353010	35.736412	11.502046	-1091.037476
22253.356362	28.664524	24.243134	-1088.465820
22253.359687	22.177090	37.451782	-1083.907104
22253.362971	14.111631	50.251312	-1080.634155
22253.366338	7.156633	63.401516	-1075.607910
22253.369703	0.902981	76.317947	-1069.529541
22253.372993	-5.935125	89.292816	-1064.035645
22253.376761	-12.364115	102.033905	-1056.788452
22253.380107	-18.676210	114.482758	-1051.469849
22253.383422	-24.520746	127.574524	-1043.696655
22253.386393	-31.826418	139.497375	-1035.923462
22253.390112	-37.320282	151.770889	-1028.150269
22253.393403	-43.573936	164.044418	-1019.441833
22253.396761	-49.944473	175.733490	-1010.791931
22253.400080	-54.912331	187.539459	-1001.265381
22253.403531	-61.341316	198.644073	-991.037415
22253.406457	-67.244301	210.450043	-980.984802
22253.410168	-72.855049	221.145538	-970.873779
22253.413529	-78.348915	232.016373	-961.288696
22253.416856	-84.602570	242.185867	-949.716492
22253.420144	-89.804207	251.829346	-939.313232
22253.423516	-94.772064	261.297485	-927.565674
22253.426811	-100.733490	271.233215	-917.104004
22253.430175	-106.811806	279.824677	-904.830505
22253.433469	-111.312103	289.643494	-893.141418
22253.436799	-116.689072	298.351837	-880.809448
22253.440108	-121.656921	306.475739	-868.535950
22253.443402	-126.507889	314.248962	-855.736389
22253.446815	-131.008179	322.139099	-843.521362
22253.450119	-135.391571	329.152557	-830.429504
22253.453411	-139.482758	336.107544	-818.857361
22253.456711	-143.924606	343.237885	-805.298096
22253.460517	-147.957336	349.257751	-791.563416
22253.464203	-152.106949	355.569855	-778.822327
22253.467527	-155.438339	360.420807	-765.555237
22253.470855	-158.769730	365.973114	-753.164795
22253.474193	-162.276443	372.226776	-740.365234
22253.477524	-165.081818	376.493286	-727.741089
22253.480852	-168.471649	380.759796	-713.538879
22253.484195	-171.101700	385.260101	-701.908264
22253.487525	-173.848633	389.175934	-689.050232
22253.490854	-176.303329	392.916412	-676.192261
22253.494184	-178.115143	396.014038	-662.399170
22253.497516	-179.693161	399.696106	-649.774963
22253.500851	-181.914093	402.618378	-636.916992
22253.504189	-183.375214	404.897736	-624.935730
22253.507548	-184.193436	407.001770	-612.545288
22253.510851	-185.128571	408.988892	-599.862671
22253.514180	-186.180588	410.917603	-588.348877
22253.517521	-187.583282	412.261841	-575.257141
22253.520875	-188.284637	413.372314	-563.977173
22253.524187	-189.219757	414.424316	-552.229675
22253.527514	-189.628860	414.833435	-540.306824
22253.530848	-189.745758	415.359436	-529.143738
22253.534182	-190.154877	415.710114	-517.863770
22253.537520	-190.447113	416.411469	-506.700775
22253.540850	-190.797775	415.593231	-495.303925
22253.544185	-190.388657	415.885437	-485.251343
22253.547515	-191.031555	414.774963	-474.322052
22253.550872	-191.382233	414.307434	-464.094116
22253.554179	-191.206909	413.547638	-453.632355
22253.557519	-190.505554	412.086517	-443.638245
22253.560857	-191.031555	412.378723	-433.468719
22253.564191	-191.090012	408.988892	-424.175903
22253.567511	-190.271774	408.345978	-414.240234
22253.570851	-190.739349	406.592651	-404.772064
22253.574182	-190.154877	405.073059	-394.836365
22253.577513	-189.979553	403.436584	-385.718872
22253.580840	-189.219757	400.923462	-376.776764
22253.584183	-189.102859	399.170074	-368.243713
22253.587512	-188.635300	397.182953	-359.126251
22253.590842	-187.758606	394.786682	-350.827026
22253.594177	-187.174179	391.805969	-342.118652
22253.597511	-186.648148	389.760376	-334.228516
22253.600845	-186.180588	387.481018	-325.695496
22253.604179	-185.245468	385.026306	-318.448303
22253.607507	-184.135010	382.104034	-311.551727
22253.610843	-183.375214	379.824677	-303.135590
22253.614619	-182.206314	377.428406	-295.596161
22253.617960	-181.154297	373.629456	-288.582703
22253.621273	-180.628296	370.999420	-281.744598
22253.624626	-179.342484	367.843384	-273.971375
22253.627938	-177.998245	365.213318	-268.185272
22253.631269	-177.004669	362.349518	-261.814728
22253.634605	-175.835754	359.076569	-254.216827
22253.637948	-174.608414	356.914093	-249.248993
22253.641262	-173.030380	353.874939	-242.819977
22253.644622	-172.387497	350.718872	-237.092346
22253.647954	-171.160141	347.562836	-230.604919
22253.651309	-168.939224	344.815918	-225.227936
22253.654615	-168.296310	342.244293	-219.967865
22253.657934	-166.542953	339.205139	-213.831085
22253.661264	-165.257156	336.224457	-208.629456
22253.664594	-163.971359	333.886627	-203.836945
22253.667953	-162.451782	330.555237	-198.343079
22253.671260	-161.224426	327.808289	-193.725891
22253.674594	-159.704849	325.412048	-188.933380
22253.677924	-159.120392	322.606659	-184.082397
22253.681303	-157.367035	319.333740	-179.582123
22253.684613	-155.905899	316.119232	-175.900055
22253.687959	-154.444763	313.138519	-170.055511
22253.691718	-153.334305	311.268280	-166.724121
22253.695025	-152.457626	307.878418	-162.165405
22253.698350	-150.587372	305.014618	-158.249557
22253.701708	-149.710693	302.033905	-154.041504
22253.705039	-148.658676	298.994751	-150.300995
22253.708429	-147.431320	296.189362	-146.969604
22253.711798	-146.554642	293.500885	-143.755127
22253.715126	-145.444183	291.104614	-139.196381
22253.718362	-144.216827	288.299225	-136.800110
22253.721688	-142.931030	285.610748	-132.650497
22253.725052	-142.054352	282.746948	-129.669785
22253.728362	-141.294556	279.824677	-126.338402
22253.731701	-139.891876	277.954407	-123.123901
22253.735091	-138.898300	274.623047	-119.792519
22253.738442	-137.437180	272.752777	-116.870247
22253.741699	-136.735825	270.122742	-113.480423
22253.745012	-135.625366	267.434235	-111.084160
22253.748351	-134.281113	265.271759	-108.571014
22253.751701	-133.696655	262.700165	-105.824081
22253.755035	-132.469315	259.894806	-103.077148
22253.758371	-131.241959	257.732330	-101.616013
22253.761761	-130.014603	255.745178	-98.752190
22253.765084	-128.962601	253.582703	-96.355927
22253.768763	-127.852127	251.303345	-93.082993
22253.772117	-126.800110	248.907074	-90.920517
22253.775058	-125.631210	247.562851	-88.524254
22253.778887	-125.046753	245.283463	-85.894211
22253.781804	-124.111633	243.354752	-83.556396
22253.785107	-123.234955	241.426071	-82.270599
22253.788820	-122.241379	239.088257	-79.114548
22253.792136	-121.014023	238.094696	-77.945648
22253.795454	-120.312683	235.406189	-76.484512
22253.798851	-118.968430	234.237289	-74.555817
22253.802168	-117.799530	231.782593	-72.802452
22253.805516	-117.098190	230.146133	-71.165985
22253.808817	-116.046158	228.275848	-69.587959
22253.812172	-115.578598	226.697830	-67.717712
22253.815496	-114.818817	225.938034	-66.782585
22253.818851	-114.234360	223.658691	-64.620102
22253.822203	-113.533020	222.548233	-63.275860
22253.825566	-112.422562	220.911743	-61.522499
22253.828869	-111.604324	218.632370	-60.236702
22253.832194	-110.844543	217.229675	-58.717125
22253.835505	-110.084747	215.710129	-57.957336
22253.838882	-109.500290	214.599670	-56.554646
22253.842232	-108.506729	212.378723	-54.684395
22253.845528	-107.980713	211.092926	-54.333721
22253.848847	-108.272949	209.690247	-53.281708
22253.852181	-107.104027	208.170654	-51.762127
22253.855479	-106.870239	206.534195	-50.768555
22253.858878	-106.928688	205.657516	-49.190529
22253.862211	-105.993568	203.845703	-48.372295
22253.865535	-104.649323	202.676804	-47.086498
22253.868869	-104.649323	201.274109	-45.976036
22253.872678	-103.655754	199.696075	-45.391582
22253.876003	-103.246635	198.585617	-44.398010
22253.879324	-103.129745	197.124481	-42.586205
22253.882666	-102.311516	196.423141	-42.469315
22253.885960	-101.434837	195.078903	-41.592636
22253.889288	-101.727051	193.910004	-40.891289
22253.892572	-100.733490	193.033325	-40.014610
22253.895916	-99.798370	192.098190	-39.371712
22253.899256	-98.863243	190.929291	-38.553478
22253.902560	-98.804794	189.117477	-37.443016
22253.905855	-98.161896	188.591476	-36.157219
22253.909128	-97.109879	187.364120	-35.748100
22253.912934	-96.700760	186.253662	-33.936295
22253.916219	-96.350082	185.669205	-34.579193
22253.919479	-95.765633	184.500290	-33.176506
22253.922801	-95.882523	183.740509	-33.410286
22253.926073	-95.239624	182.746933	-31.949152
22253.929342	-95.122726	182.104034	-30.897135
22253.932628	-94.772064	181.285812	-30.721800
22253.935949	-93.836937	180.409119	-30.137346
22253.939636	-93.603157	180.467560	-29.085329
22253.942935	-93.135590	179.766220	-29.611338
22253.946233	-93.194038	179.181778	-28.793102
22253.949474	-92.843361	178.071304	-28.676212
22253.952787	-92.142021	177.720642	-28.267094
22253.956057	-92.200470	177.136185	-27.741085
22253.959356	-91.849792	176.084167	-26.864407
22253.962710	-91.440674	175.967270	-25.929279
22253.966040	-91.265343	175.090591	-25.812389
22253.969373	-90.739334	175.090591	-25.870834
22253.973151	-91.148445	174.155472	-25.578608
22253.976431	-90.447098	173.746353	-25.403271
22253.979736	-90.505547	173.512573	-24.409702
22253.983038	-90.622444	173.103439	-24.409702
22253.986309	-90.154884	172.694336	-24.468147
22253.989634	-90.154884	172.109879	-24.234365
22253.993000	-89.745758	171.700760	-23.591465
22253.996288	-89.570427	171.350098	-24.059029
22253.999594	-89.453537	170.940979	-23.708357
22254.003319	-89.628876	170.531845	-23.182348
22254.006714	-89.161308	170.298065	-23.182348
22254.009979	-88.985962	169.538284	-22.364113
22254.013270	-88.985962	169.070724	-21.838106
22254.016540	-88.927528	169.187607	-22.130333
22254.019815	-88.343071	168.252487	-22.247223
22254.023120	-88.284622	168.135605	-22.539450
22254.026395	-87.933952	168.194031	-21.487434
22254.029727	-88.518402	167.609589	-22.481005
22254.033433	-88.576851	167.901825	-21.604324
22254.036701	-88.869080	167.434265	-20.669197
22254.040001	-88.518402	167.609589	-21.487434
22254.043263	-88.693748	167.025131	-21.136761
22254.046619	-88.050842	167.258911	-20.786089
22254.049994	-88.226181	166.732910	-20.961426
22254.053279	-87.992401	166.616013	-20.902981
22254.056551	-88.401520	166.849792	-21.019871
22254.059851	-87.875504	166.849792	-20.435417
22254.063605	-87.875504	166.908249	-21.078316
22254.066913	-88.284622	167.258911	-20.844536
22254.070190	-88.167740	167.551147	-20.376972
22254.073455	-87.992401	167.726471	-21.019871
22254.076779	-88.459969	167.142029	-21.019871
22254.080062	-88.635300	167.083588	-20.786089
22254.083369	-88.869080	167.784927	-21.195206
22254.086688	-88.284622	167.960251	-21.487434
22254.090019	-88.343071	168.018707	-21.428988
22254.093780	-88.927528	168.836945	-21.253651
22254.097464	-89.044411	168.544724	-21.487434
22254.100795	-88.752182	169.012283	-22.013443
22254.104132	-88.869080	168.953827	-21.838106
22254.107460	-89.161308	169.479843	-21.896551
22254.110794	-89.570427	169.421387	-22.597897
22254.114129	-89.570427	170.005859	-22.831676
22254.117480	-89.745758	170.414963	-22.656342
22254.120795	-90.330215	170.999420	-23.065458
22254.124125	-90.388664	170.999420	-23.357685
22254.127459	-90.622444	171.291641	-24.059029
22254.130787	-90.797775	171.700760	-24.468147
22254.134120	-90.914665	171.817657	-24.409702
22254.137499	-91.440674	172.109879	-23.883694
22254.140790	-91.791351	172.577454	-25.227936
22254.144122	-92.375801	173.337234	-25.227936
22254.147461	-92.784912	173.220337	-25.695499
22254.150788	-92.784912	174.330795	-26.279953
22254.154122	-92.901810	174.623032	-26.396843
22254.157461	-93.836937	174.856812	-27.039742
22254.160828	-94.012268	175.324371	-28.267094
22254.164116	-94.304497	176.317947	-28.033314
22254.167453	-94.187599	176.727066	-28.091759
22254.170786	-94.713615	177.019287	-27.507305
22254.174117	-95.298073	177.895966	-28.267094
22254.177450	-95.590294	178.421982	-28.442430
22254.180788	-96.174751	179.064880	-28.267094
22254.184119	-96.408531	179.707779	-29.552893
22254.187451	-96.759201	181.168915	-29.026884
22254.190788	-97.343658	181.344238	-30.254236
22254.194113	-97.518990	182.104034	-30.955582
22254.197463	-98.103447	183.039154	-31.773815
22254.200787	-98.220337	183.623611	-32.708942
22254.204160	-98.220337	184.850967	-33.527176
22254.207450	-99.097023	186.078323	-34.754528
22254.210783	-99.506134	186.253662	-36.332554
22254.214120	-100.791931	187.714783	-36.157219
22254.217445	-101.142609	188.416138	-37.267677
22254.220780	-101.610168	189.643478	-38.085915
22254.224115	-102.253067	191.279953	-39.663940
22254.227445	-102.720627	192.448868	-39.547047
22254.230778	-103.480423	193.091766	-41.183517
22254.234116	-103.714203	194.260681	-40.949738
22254.237443	-104.707771	195.604919	-42.177090
22254.240777	-105.292221	196.598495	-43.696667
22254.244558	-106.285797	198.118057	-44.456459
22254.247469	-107.045586	199.170090	-45.333138
22254.251224	-107.396255	199.929871	-46.443600
22254.254562	-108.740509	201.741684	-48.021622
22254.257873	-108.974289	203.319702	-49.015194
22254.261201	-110.493866	204.839279	-50.184105
22254.264534	-111.078323	205.599060	-50.943893
22254.267871	-111.487427	207.177094	-52.697250
22254.271231	-112.247223	208.579788	-53.749268
22254.274526	-112.890121	209.631790	-54.450615
22254.277865	-114.000580	210.508469	-55.619522
22254.281224	-114.818817	212.261856	-57.197544
22254.284561	-115.637054	213.313843	-58.074226
22254.287895	-116.689072	215.067230	-59.886032
22254.291219	-117.215088	216.294556	-61.580948
22254.294530	-117.565750	217.872604	-62.983635
22254.297870	-118.909988	219.567520	-63.392754
22254.301199	-119.611328	220.911743	-65.263000
22254.304535	-120.488022	222.665100	-67.308594
22254.307862	-121.481583	224.184692	-68.068382
22254.311196	-122.182922	226.113403	-69.120392
22254.314555	-122.942719	227.866745	-71.165985
22254.317885	-124.286957	229.503204	-72.860901
22254.321229	-125.046753	231.139694	-73.912918
22254.324525	-126.098770	233.243713	-75.900055
22254.327866	-127.150787	235.230865	-77.770309
22254.331620	-128.553467	236.692001	-79.991234
22254.334559	-129.254822	238.270020	-82.621277
22254.338317	-130.248383	240.257172	-83.731735
22254.341649	-131.300415	242.010529	-85.601990
22254.345028	-132.177094	244.348343	-88.115135
22254.348357	-132.936874	246.101700	-90.043831
22254.351696	-134.748688	248.790176	-93.258331
22254.354956	-135.391571	250.601990	-96.122147
22254.358297	-136.969604	252.355347	-98.459969
22254.361636	-137.904739	255.160721	-101.440674
22254.364976	-138.898300	256.972534	-103.369377
22254.368387	-139.599640	259.076569	-105.531853
22254.371686	-142.054352	261.531250	-107.577438
22254.375035	-142.463470	263.869080	-110.908829
